%2/18/2010     #Date
%10:24:51     #Time
%COVIS
%TC2162 CALIBRATION, 400KHZ, RESON MAX DRIVE LEVEL (SLIDER = 220dB), 300uS PULSE LENGTH
%HORIZONTAL BEAM PATTERN
%0.20     #Transmit Amplitude  
%Transmit      #UUT Mode Flag 
%Standard E37 Receiver With Preamp     #Projector Standard
%006     #Projector Standard S/N
%400.00     #Frequency
%202.43     #UUT Projector Source Level
%186.87     #Reference Receiver Receive Level
%243.44     #Max Sensitivity For Subtract
%6.00     #Range
%2.00     #Depth
%19.2     #CalibTemp 
%9.00     #Water Temperature
%1.000     #Angle Step
%181     #NumVals
  86.379  -20.86
  85.399  -23.77
  84.424  -19.90
  83.446  -18.00
  82.465  -16.27
  81.491  -17.07
  80.511  -17.91
  79.533  -15.68
  78.537  -13.86
  77.559  -13.63
  76.588  -12.73
  75.612  -10.64
  74.633   -9.16
  73.657   -6.68
  72.680   -5.87
  71.702   -4.83
  70.719   -2.75
  69.742   -1.56
  68.762   -0.85
  67.759   -0.53
  66.783    0.37
  65.805    0.48
  64.824    0.60
  63.852    0.84
  62.869    1.10
  61.890    0.56
  60.915    0.43
  59.937   -0.51
  58.958    1.14
  57.981   -0.28
  56.986    0.34
  56.007    0.69
  55.033   -0.20
  54.054    0.59
  53.076    0.02
  52.101    0.52
  51.123   -0.60
  50.144   -1.23
  49.168    0.25
  48.189    1.16
  47.213    1.27
  46.235    0.35
  45.253    0.67
  44.279    1.27
  43.308    0.51
  42.326    0.17
  41.349    0.49
  40.368   -0.19
  39.383    0.72
  38.410    1.07
  37.433   -0.02
  36.451   -0.24
  35.476    0.05
  34.495    0.50
  33.516    0.68
  32.542    0.96
  31.565    1.14
  30.583    0.38
  29.609    1.29
  28.629    0.98
  27.648    0.39
  26.673    0.67
  25.694    0.25
  24.713    0.48
  23.737    1.73
  22.752    0.93
  21.771    0.56
  20.793    0.87
  19.815    0.41
  18.832    1.38
  17.857    0.08
  16.876    0.11
  15.882    0.62
  14.910    1.06
  13.931   -0.05
  12.951    0.36
  11.971    0.56
  10.990    0.94
  10.009    1.66
   9.032    0.32
   8.055    0.56
   7.060   -0.13
   6.085    0.73
   5.106    0.65
   4.125    2.08
   3.148    0.57
   2.172   -0.58
   1.190    0.56
   0.214    1.02
 359.233    1.45
 358.252    2.48
 357.273   -0.20
 356.289    0.59
 355.308    0.78
 354.334   -0.06
 353.353    0.92
 352.372    1.07
 351.397    1.86
 350.419    1.60
 349.439    1.31
 348.463    2.01
 347.476    1.04
 346.496    1.87
 345.518    0.29
 344.543    1.10
 343.566    0.07
 342.587   -0.09
 341.607    0.22
 340.631    0.57
 339.652    0.18
 338.668    0.96
 337.694    0.55
 336.714   -0.22
 335.731    0.54
 334.755    0.54
 333.776    1.06
 332.796   -0.21
 331.818    0.68
 330.838    0.44
 329.854   -0.19
 328.877   -0.30
 327.899   -0.13
 326.919    0.71
 325.944    1.01
 324.964    0.52
 323.980    0.52
 323.006    0.79
 322.027    1.00
 321.049    1.08
 320.072    1.86
 319.094    1.04
 318.090   -0.03
 317.122    0.13
 316.120    0.36
 315.139    0.97
 314.163   -0.09
 313.184   -0.00
 312.202    0.76
 311.223    1.60
 310.246   -0.08
 309.271    0.37
 308.289   -0.31
 307.313    0.33
 306.331    0.51
 305.350    1.19
 304.374    0.27
 303.395    1.10
 302.415    0.89
 301.435   -0.49
 300.455    0.43
 299.475    1.53
 298.497    1.59
 297.518    1.40
 296.511    1.10
 295.531    1.27
 294.550   -0.32
 293.568   -1.17
 292.592   -2.23
 291.612   -2.80
 290.631   -3.68
 289.653   -6.64
 288.671   -6.96
 287.693   -9.14
 286.716   -9.06
 285.742  -10.98
 284.762  -13.32
 283.786  -12.68
 282.802  -14.61
 281.818  -16.34
 280.841  -17.68
 279.861  -21.85
 278.877  -20.83
 277.897  -18.78
 276.912  -18.57
 275.926  -20.03
 274.946  -24.24
 273.966  -23.42
 272.982  -19.63
 272.005  -20.52
 271.021  -24.94
 270.045    0.00
