%2/18/2010     #Date
%09:34:19     #Time
%COVIS
%TC2162 CALIBRATION, 200KHZ, RESON MAX DRIVE LEVEL (SLIDER = 220dB), 300uS PULSE LENGTH
%HORIZONTAL BEAM PATTERN
%0.20     #Transmit Amplitude  
%Transmit      #UUT Mode Flag 
%Standard E37 Receiver With Preamp     #Projector Standard
%006     #Projector Standard S/N
%200.00     #Frequency
%201.81     #UUT Projector Source Level
%186.25     #Reference Receiver Receive Level
%243.54     #Max Sensitivity For Subtract
%6.00     #Range
%2.00     #Depth
%19.2     #CalibTemp 
%9.00     #Water Temperature
%1.000     #Angle Step
%181     #NumVals
  86.626  -15.59
  85.649  -13.87
  84.668  -12.72
  83.686  -12.29
  82.708  -12.62
  81.727  -13.19
  80.746  -13.39
  79.768  -12.84
  78.789  -11.59
  77.807  -11.24
  76.829   -8.80
  75.851   -7.60
  74.870   -6.47
  73.893   -6.29
  72.914   -5.46
  71.931   -5.11
  70.953   -4.63
  69.975   -3.05
  68.990   -1.84
  68.012   -0.52
  67.030    0.49
  66.048    1.29
  65.072    0.29
  64.093    0.90
  63.111    0.17
  62.132    1.56
  61.152    0.23
  60.172    0.88
  59.191    0.74
  58.210    0.90
  57.221    1.47
  56.242    0.93
  55.262    0.25
  54.279    1.22
  53.299    2.02
  52.317    1.28
  51.336    1.50
  50.361    1.26
  49.381    0.80
  48.399    1.03
  47.422    0.10
  46.443   -0.58
  45.461    0.74
  44.486    0.92
  43.507   -0.01
  42.529   -0.10
  41.551    0.27
  40.571   -0.28
  39.590   -0.32
  38.605   -0.20
  37.630    0.59
  36.648    0.12
  35.669    0.56
  34.687    0.13
  33.708    0.06
  32.734    0.96
  31.753    1.00
  30.778    2.05
  29.800    1.73
  28.817    0.54
  27.839   -0.09
  26.861   -0.27
  25.879   -0.08
  24.901    0.08
  23.920   -0.95
  22.934    0.44
  21.955   -0.99
  20.979   -0.02
  19.994   -0.17
  19.013   -0.04
  18.036    1.17
  17.050    0.17
  16.068    0.58
  15.089    1.33
  14.109    1.92
  13.127    1.60
  12.146    1.37
  11.163    0.77
  10.182    0.33
   9.203    0.18
   8.224    0.03
   7.241    0.48
   6.261    0.34
   5.279    1.92
   4.298    0.59
   3.319    1.10
   2.344    0.96
   1.363   -0.18
   0.384   -0.89
 359.401   -0.42
 358.417   -0.64
 357.441    0.42
 356.460    0.26
 355.481    0.86
 354.502   -0.21
 353.519    0.79
 352.539   -0.08
 351.562   -0.54
 350.578    0.41
 349.602    1.18
 348.621    1.02
 347.639    0.40
 346.647    0.15
 345.666    1.34
 344.682    1.60
 343.698    0.49
 342.715   -0.30
 341.732   -1.28
 340.751   -0.29
 339.771    0.56
 338.783    2.05
 337.806    2.44
 336.823    2.13
 335.840    1.89
 334.862    1.51
 333.882    0.03
 332.898    0.35
 331.919    1.09
 330.937    1.13
 329.958    1.02
 328.985   -0.08
 328.001   -0.13
 327.018    0.56
 326.041    0.37
 325.059    0.05
 324.078   -0.06
 323.099   -0.90
 322.116   -0.19
 321.137    0.83
 320.162    1.13
 319.179    1.44
 318.202    0.55
 317.225   -0.66
 316.245   -0.50
 315.265   -0.84
 314.285    0.99
 313.303    0.46
 312.323    1.01
 311.344    1.48
 310.364    1.30
 309.380    0.51
 308.401    1.19
 307.424    2.18
 306.404    0.81
 305.429    1.55
 304.452    1.56
 303.468    1.39
 302.489    1.27
 301.504    1.35
 300.523    1.19
 299.541    0.75
 298.565    0.04
 297.586   -1.19
 296.576   -0.61
 295.598   -0.94
 294.616   -0.81
 293.633   -1.90
 292.658   -3.61
 291.678   -4.95
 290.696   -5.16
 289.718   -5.94
 288.736   -6.15
 287.753   -6.17
 286.773   -7.46
 285.791   -7.13
 284.809   -8.46
 283.830   -8.96
 282.853  -11.07
 281.868  -12.47
 280.863  -13.55
 279.883  -14.58
 278.896  -17.07
 277.915  -18.98
 276.932  -19.41
 275.943  -20.19
 274.961  -20.94
 273.982  -22.78
 273.000  -24.20
 272.016  -27.10
 271.034  -29.57
 270.046    0.00
